Freq[Hz]     dBSPL  Phase[Deg]
5.00000     85.661   -13.497
5.07273     85.649   -13.460
5.14651     85.631   -13.411
5.22137     85.607   -13.346
5.29732     85.581   -13.274
5.37437     85.556   -13.193
5.45254     85.530   -13.112
5.53185     85.504   -13.029
5.61231     85.478   -12.945
5.69394     85.453   -12.860
5.77676     85.427   -12.773
5.86079     85.401   -12.685
5.94604     85.375   -12.595
6.03252     85.349   -12.504
6.12027     85.324   -12.411
6.20929     85.298   -12.317
6.29961     85.272   -12.221
6.39124     85.246   -12.123
6.48420     85.221   -12.024
6.57851     85.195   -11.923
6.67420     85.169   -11.820
6.77128     85.143   -11.715
6.86977     85.118   -11.609
6.96969     85.092   -11.501
7.07107     85.066   -11.390
7.17392     85.040   -11.278
7.27827     85.015   -11.163
7.38413     84.989   -11.047
7.49154     84.963   -10.928
7.60050     84.937   -10.807
7.71105     84.912   -10.684
7.82321     84.886   -10.558
7.93701     84.860   -10.430
8.05245     84.834   -10.300
8.16958     84.808   -10.167
8.28841     84.783   -10.031
8.40896     84.757    -9.893
8.53128     84.731    -9.752
8.65537     84.705    -9.608
8.78126     84.680    -9.461
8.90899     84.654    -9.312
9.03857     84.628    -9.159
9.17004     84.602    -9.003
9.30342     84.577    -8.844
9.43874     84.551    -8.682
9.57603     84.525    -8.516
9.71532     84.499    -8.347
9.85663     84.474    -8.174
10.0000     84.448    -7.998
10.1455     84.422    -7.818
10.2930     84.396    -7.635
10.4427     84.371    -7.448
10.5946     84.345    -7.257
10.7487     84.319    -7.063
10.9051     84.293    -6.866
11.0637     84.267    -6.665
11.2246     84.242    -6.461
11.3879     84.216    -6.256
11.5535     84.190    -6.049
11.7216     84.164    -5.842
11.8921     84.139    -5.638
12.0650     84.113    -5.440
12.2405     84.087    -5.258
12.4186     84.061    -5.101
12.5992     84.033    -4.977
12.7825     83.994    -4.877
12.9684     83.933    -4.764
13.1570     83.850    -4.592
13.3484     83.743    -4.308
13.5426     83.625    -3.864
13.7395     83.507    -3.232
13.9394     83.397    -2.413
14.1421     83.306    -1.427
14.3478     83.235    -0.296
14.5565     83.198     0.938
14.7683     83.190     2.224
14.9831     83.215     3.521
15.2010     83.270     4.785
15.4221     83.350     5.985
15.6464     83.453     7.094
15.8740     83.571     8.094
16.1049     83.705     8.976
16.3392     83.852     9.726
16.5768     83.996    10.355
16.8179     84.138    10.892
17.0626     84.274    11.354
17.3107     84.405    11.767
17.5625     84.541    12.140
17.8180     84.684    12.466
18.0771     84.830    12.735
18.3401     84.977    12.951
18.6068     85.118    13.128
18.8775     85.263    13.272
19.1521     85.409    13.381
19.4306     85.573    13.435
19.7133     85.752    13.396
20.0000     85.938    13.236
20.2909     86.120    12.953
20.5860     86.298    12.543
20.8855     86.467    12.013
21.1893     86.632    11.375
21.4975     86.786    10.635
21.8102     86.929     9.800
22.1274     87.057     8.873
22.4492     87.168     7.868
22.7758     87.265     6.800
23.1071     87.349     5.660
23.4432     87.409     4.468
23.7841     87.448     3.248
24.1301     87.458     2.024
24.4811     87.436     0.837
24.8372     87.397    -0.288
25.1984     87.340    -1.340
25.5649     87.272    -2.305
25.9368     87.200    -3.194
26.3141     87.114    -4.012
26.6968     87.017    -4.741
27.0851     86.912    -5.374
27.4791     86.797    -5.901
27.8788     86.679    -6.312
28.2843     86.568    -6.619
28.6957     86.468    -6.847
29.1131     86.370    -7.004
29.5365     86.282    -7.101
29.9661     86.194    -7.153
30.4020     86.108    -7.146
30.8442     86.036    -7.090
31.2929     85.973    -7.007
31.7480     85.926    -6.920
32.2098     85.888    -6.851
32.6783     85.854    -6.800
33.1536     85.821    -6.773
33.6359     85.780    -6.752
34.1251     85.748    -6.729
34.6215     85.715    -6.705
35.1250     85.683    -6.665
35.6359     85.660    -6.629
36.1543     85.639    -6.608
36.6802     85.628    -6.608
37.2137     85.626    -6.653
37.7550     85.626    -6.762
38.3041     85.626    -6.943
38.8613     85.625    -7.206
39.4265     85.616    -7.550
40.0000     85.596    -7.967
40.5818     85.558    -8.446
41.1721     85.497    -8.963
41.7710     85.415    -9.490
42.3785     85.301    -9.985
42.9949     85.157   -10.399
43.6203     84.980   -10.685
44.2548     84.776   -10.781
44.8985     84.547   -10.617
45.5515     84.300   -10.120
46.2141     84.041    -9.213
46.8863     83.798    -7.850
47.5683     83.609    -6.050
48.2602     83.521    -3.948
48.9621     83.544    -1.757
49.6743     83.690     0.271
50.3968     83.932     1.878
51.1299     84.235     2.918
51.8736     84.566     3.325
52.6281     84.873     3.131
53.3936     85.120     2.450
54.1702     85.292     1.421
54.9581     85.383     0.188
55.7575     85.399    -1.100
56.5685     85.337    -2.303
57.3914     85.200    -3.285
58.2261     85.000    -3.932
59.0730     84.771    -4.170
59.9323     84.542    -3.964
60.8040     84.349    -3.356
61.6884     84.206    -2.464
62.5857     84.111    -1.400
63.4960     84.062    -0.251
64.4196     84.045     0.932
65.3566     84.042     2.157
66.3073     84.057     3.454
67.2717     84.108     4.823
68.2502     84.218     6.203
69.2429     84.402     7.472
70.2501     84.663     8.468
71.2719     84.974     9.052
72.3086     85.304     9.160
73.3603     85.624     8.788
74.4274     85.912     7.985
75.5099     86.149     6.838
76.6083     86.323     5.462
77.7226     86.430     3.963
78.8531     86.472     2.441
80.0000     86.458     0.992
81.1636     86.398    -0.305
82.3442     86.297    -1.384
83.5419     86.176    -2.212
84.7570     86.044    -2.771
85.9899     85.922    -3.064
87.2406     85.830    -3.150
88.5096     85.781    -3.133
89.7970     85.783    -3.133
91.1031     85.824    -3.258
92.4282     85.885    -3.581
93.7726     85.934    -4.117
95.1366     85.963    -4.844
96.5204     85.967    -5.718
97.9243     85.940    -6.684
99.3486     85.875    -7.677
100.794     85.769    -8.648
102.260     85.629    -9.556
103.747     85.462   -10.366
105.256     85.279   -11.053
106.787     85.066   -11.588
108.340     84.817   -11.912
109.916     84.525   -11.925
111.515     84.203   -11.499
113.137     83.878   -10.527
114.783     83.592    -8.980
116.452     83.412    -6.990
118.146     83.397    -4.897
119.865     83.555    -3.144
121.608     83.836    -2.107
123.377     84.137    -1.945
125.171     84.378    -2.579
126.992     84.493    -3.772
128.839     84.449    -5.191
130.713     84.242    -6.470
132.615     83.892    -7.267
134.543     83.431    -7.232
136.500     82.937    -6.101
138.486     82.526    -3.868
140.500     82.298    -0.825
142.544     82.344     2.427
144.617     82.608     5.228
146.721     82.979     7.227
148.855     83.376     8.318
151.020     83.754     8.559
153.217     84.108     8.065
155.445     84.414     6.952
157.706     84.600     5.439
160.000     84.620     3.833
162.327     84.465     2.465
164.688     84.169     1.690
167.084     83.842     1.756
169.514     83.600     2.626
171.980     83.547     3.912
174.481     83.717     4.963
177.019     84.060     5.171
179.594     84.457     4.186
182.206     84.764     2.007
184.856     84.886    -1.090
187.545     84.743    -4.680
190.273     84.227    -8.061
193.041     83.278   -10.270
195.849     81.915   -10.169
198.697     80.259    -6.037
201.587     78.886     3.486
204.520     78.809    16.099
207.494     79.936    25.980
210.512     81.285    30.974
213.574     82.419    32.425
216.681     83.190    31.895
219.833     83.607    30.602
223.030     83.768    29.489
226.274     83.782    29.096
229.565     83.775    29.634
232.905     83.928    30.823
236.292     84.355    31.935
239.729     85.002    32.232
243.216     85.702    31.339
246.754     86.234    29.397
250.343     86.520    26.861
253.984     86.556    24.199
257.678     86.398    21.843
261.426     86.121    20.195
265.229     85.793    19.496
269.087     85.465    19.829
273.001     85.205    21.081
276.972     85.112    22.953
281.000     85.237    24.966
285.088     85.508    26.704
289.234     85.825    28.002
293.441     86.140    28.873
297.709     86.467    29.383
302.040     86.844    29.537
306.433     87.287    29.232
310.890     87.759    28.330
315.412     88.212    26.768
320.000     88.617    24.554
324.655     88.927    21.802
329.377     89.099    18.737
334.168     89.108    15.640
339.028     88.920    12.838
343.959     88.561    10.701
348.962     88.126     9.467
354.038     87.752     9.109
359.188     87.537     9.371
364.412     87.498     9.836
369.713     87.533    10.167
375.090     87.543    10.299
380.546     87.520    10.349
386.081     87.497    10.426
391.697     87.522    10.508
397.394     87.628    10.423
403.175     87.811     9.939
409.039     87.991     8.970
414.989     88.081     7.653
421.025     88.031     6.235
427.149     87.830     5.014
433.362     87.546     4.267
439.665     87.283     4.082
446.060     87.113     4.296
452.548     87.048     4.630
459.131     87.036     4.881
465.809     86.990     5.068
472.584     86.855     5.407
479.458     86.684     6.073
486.432     86.573     7.058
493.507     86.615     8.144
500.686     86.805     8.973
507.968     87.035     9.317
515.357     87.205     9.220
522.853     87.284     8.889
530.458     87.322     8.480
538.174     87.389     7.972
546.002     87.516     7.234
553.943     87.657     6.171
562.001     87.703     4.864
570.175     87.580     3.578
578.469     87.289     2.655
586.883     86.909     2.402
595.419     86.579     2.918
604.080     86.375     4.044
612.866     86.290     5.515
621.780     86.267     7.103
630.824     86.309     8.645
640.000     86.462     9.921
649.309     86.725    10.715
658.753     87.052    10.880
668.335     87.328    10.417
678.056     87.483     9.519
687.919     87.521     8.435
697.925     87.480     7.383
708.077     87.392     6.549
718.376     87.244     6.106
728.825     87.037     6.209
739.426     86.833     6.877
750.181     86.734     7.934
761.093     86.807     9.059
772.163     87.033     9.854
783.394     87.260    10.129
794.789     87.406     9.997
806.349     87.476     9.662
818.078     87.505     9.308
829.977     87.515     9.094
842.050     87.520     9.085
854.298     87.547     9.201
866.724     87.614     9.297
879.330     87.765     9.213
892.120     87.970     8.792
905.097     88.130     8.028
918.262     88.196     7.055
931.618     88.167     6.042
945.169     88.080     5.176
958.917     87.974     4.591
972.864     87.872     4.310
987.015     87.779     4.284
1001.37     87.717     4.435
1015.94     87.709     4.651
1030.71     87.752     4.816
1045.71     87.827     4.820
1060.92     87.902     4.619
1076.35     87.953     4.263
1092.00     87.973     3.835
1107.89     87.955     3.423
1124.00     87.928     3.062
1140.35     87.917     2.720
1156.94     87.927     2.349
1173.77     87.935     1.929
1190.84     87.908     1.491
1208.16     87.835     1.119
1225.73     87.716     0.954
1243.56     87.602     1.078
1261.65     87.538     1.401
1280.00     87.557     1.727
1298.62     87.681     1.796
1317.51     87.837     1.429
1336.67     87.943     0.663
1356.11     87.941    -0.327
1375.84     87.809    -1.269
1395.85     87.582    -1.876
1416.15     87.338    -2.003
1436.75     87.138    -1.676
1457.65     87.013    -1.039
1478.85     86.962    -0.282
1500.36     86.953     0.444
1522.19     86.962     1.072
1544.33     86.995     1.565
1566.79     87.056     1.883
1589.58     87.132     2.001
1612.70     87.192     1.947
1636.16     87.204     1.817
1659.95     87.164     1.738
1684.10     87.095     1.811
1708.60     87.048     2.052
1733.45     87.053     2.370
1758.66     87.104     2.645
1784.24     87.176     2.784
1810.19     87.238     2.759
1836.52     87.275     2.611
1863.24     87.294     2.396
1890.34     87.306     2.148
1917.83     87.306     1.894
1945.73     87.281     1.681
1974.03     87.248     1.526
2002.74     87.211     1.414
2031.87     87.174     1.360
2061.43     87.161     1.331
2091.41     87.144     1.279
2121.83     87.111     1.236
2152.69     87.077     1.213
2184.01     87.022     1.243
2215.77     86.964     1.372
2248.00     86.918     1.579
2280.70     86.881     1.840
2313.87     86.864     2.136
2347.53     86.859     2.436
2381.68     86.850     2.749
2416.32     86.837     3.100
2451.46     86.845     3.459
2487.12     86.885     3.761
2523.30     86.963     3.933
2560.00     87.048     3.927
2597.24     87.095     3.793
2635.01     87.102     3.613
2673.34     87.072     3.477
2712.23     87.039     3.451
2751.68     87.034     3.502
2791.70     87.045     3.568
2832.31     87.075     3.594
2873.50     87.098     3.546
2915.30     87.113     3.450
2957.70     87.115     3.343
3000.72     87.099     3.269
3044.37     87.086     3.243
3088.65     87.090     3.219
3133.58     87.128     3.120
3179.16     87.186     2.863
3225.40     87.240     2.409
3272.31     87.260     1.778
3319.91     87.218     1.066
3368.20     87.118     0.400
3417.19     86.976    -0.129
3466.89     86.812    -0.462
3517.32     86.641    -0.573
3568.48     86.470    -0.466
3620.39     86.291    -0.139
3673.05     86.114     0.414
3726.47     85.949     1.191
3780.67     85.813     2.171
3835.67     85.720     3.285
3891.46     85.671     4.440
3948.06     85.662     5.560
4005.49     85.675     6.601
4063.75     85.696     7.569
4122.86     85.713     8.490
4182.82     85.733     9.397
4243.66     85.775    10.284
4305.39     85.841    11.119
4368.01     85.917    11.887
4431.55     86.001    12.577
4496.01     86.074    13.204
4561.40     86.144    13.808
4627.75     86.228    14.387
4695.06     86.323    14.922
4763.35     86.431    15.403
4832.64     86.538    15.825
4902.93     86.638    16.215
4974.24     86.739    16.587
5046.60     86.853    16.932
5120.00     86.995    17.211
5194.47     87.165    17.352
5270.03     87.350    17.295
5346.68     87.531    17.012
5424.45     87.706    16.486
5503.35     87.859    15.726
5583.40     87.987    14.768
5664.61     88.068    13.669
5747.01     88.086    12.513
5830.60     88.053    11.371
5915.41     87.979    10.289
6001.45     87.868     9.341
6088.74     87.720     8.587
6177.30     87.522     8.089
6267.15     87.277     7.935
6358.31     87.021     8.207
6450.80     86.780     8.955
6544.62     86.556    10.227
6639.82     86.388    11.987
6736.40     86.353    13.968
6834.38     86.488    15.768
6933.79     86.788    16.976
7034.64     87.131    17.353
7136.96     87.377    17.021
7240.77     87.457    16.358
7346.09     87.348    15.862
7452.94     87.114    15.985
7561.35     86.883    16.909
7671.33     86.810    18.434
7782.91     86.976    20.021
7896.12     87.297    21.124
8010.97     87.632    21.524
8127.49     87.894    21.291
8245.71     88.051    20.668
8365.65     88.128    19.927
8487.33     88.159    19.235
8610.78     88.145    18.691
8736.03     88.101    18.363
8863.09     88.039    18.283
8992.01     87.968    18.486
9122.80     87.925    18.951
9255.50     87.930    19.588
9390.12     87.987    20.299
9526.70     88.107    20.952
9665.27     88.275    21.402
9805.86     88.474    21.563
9948.49     88.696    21.373
10093.2     88.909    20.820
10240.0     89.082    19.958
10388.9     89.207    18.858
10540.1     89.267    17.613
10693.4     89.277    16.316
10848.9     89.247    15.012
11006.7     89.161    13.777
11166.8     89.022    12.704
11329.2     88.819    11.882
11494.0     88.562    11.422
11661.2     88.296    11.379
11830.8     88.050    11.733
12002.9     87.856    12.394
12177.5     87.716    13.214
12354.6     87.606    14.092
12534.3     87.510    14.992
12716.6     87.401    15.951
12901.6     87.283    17.042
13089.2     87.161    18.339
13279.6     87.051    19.910
13472.8     86.973    21.782
13668.8     86.946    23.918
13867.6     86.997    26.218
14069.3     87.151    28.517
14273.9     87.401    30.629
14481.5     87.724    32.397
14692.2     88.099    33.708
14905.9     88.511    34.487
15122.7     88.935    34.726
15342.7     89.341    34.470
15565.8     89.697    33.798
15792.2     89.989    32.816
16021.9     90.239    31.590
16255.0     90.453    30.159
16491.4     90.633    28.556
16731.3     90.758    26.812
16974.7     90.792    25.041
17221.6     90.717    23.429
17472.1     90.529    22.201
17726.2     90.281    21.526
17984.0     90.063    21.403
18245.6     89.919    21.714
18511.0     89.882    22.246
18780.2     89.907    22.752
19053.4     89.942    23.132
19330.5     89.979    23.396
19611.7     90.016    23.579
19897.0     90.053    23.718
20186.4     90.090    23.829
20480.0     90.127    23.920
20777.9     90.164    23.999
21080.1     90.201    24.067
21386.7     90.238    24.127
21697.8     90.275    24.181
22013.4     90.312    24.230
22333.6     90.349    24.276
22658.4     90.386    24.319
22988.0     90.423    24.359
23322.4     90.460    24.397
23661.6     90.498    24.433
24005.8     90.535    24.467
24355.0     90.572    24.501
24709.2     90.609    24.533
25068.6     90.646    24.564
25433.2     90.683    24.594
25803.2     90.720    24.623
26178.5     90.757    24.652
26559.3     90.794    24.680
26945.6     90.831    24.708
27337.5     90.868    24.735
27735.2     90.905    24.761
28138.6     90.942    24.787
28547.9     90.979    24.813
28963.1     91.016    24.838
29384.4     91.053    24.862
29811.8     91.090    24.887
30245.4     91.127    24.911
30685.3     91.164    24.934
31131.7     91.201    24.957
31584.5     91.238    24.980
32043.9     91.275    25.003
32510.0     91.312    25.025
32982.8     91.349    25.047
33462.6     91.387    25.069
33949.3     91.424    25.091
34443.1     91.461    25.112
34944.1     91.498    25.133
35452.4     91.535    25.154
35968.0     91.572    25.174
36491.2     91.609    25.195
37022.0     91.646    25.215
37560.5     91.683    25.236
38106.8     91.719    25.255
38661.1     91.754    25.273
39223.4     91.780    25.288
39793.9     91.798    25.299
