Freq[Hz]     dBSPL  Phase[Deg]
5.00000     85.481   -17.064
5.07273     85.467   -17.039
5.14651     85.447   -17.006
5.22137     85.420   -16.962
5.29732     85.392   -16.914
5.37437     85.364   -16.861
5.45254     85.336   -16.807
5.53185     85.307   -16.753
5.61231     85.279   -16.698
5.69394     85.250   -16.642
5.77676     85.222   -16.585
5.86079     85.194   -16.528
5.94604     85.165   -16.469
6.03252     85.137   -16.410
6.12027     85.109   -16.349
6.20929     85.080   -16.288
6.29961     85.052   -16.225
6.39124     85.023   -16.162
6.48420     84.995   -16.097
6.57851     84.967   -16.032
6.67420     84.938   -15.965
6.77128     84.910   -15.897
6.86977     84.881   -15.828
6.96969     84.853   -15.758
7.07107     84.825   -15.687
7.17392     84.796   -15.614
7.27827     84.768   -15.540
7.38413     84.740   -15.465
7.49154     84.711   -15.389
7.60050     84.683   -15.311
7.71105     84.654   -15.232
7.82321     84.626   -15.151
7.93701     84.598   -15.069
8.05245     84.569   -14.986
8.16958     84.541   -14.901
8.28841     84.512   -14.814
8.40896     84.484   -14.726
8.53128     84.456   -14.636
8.65537     84.427   -14.545
8.78126     84.399   -14.451
8.90899     84.371   -14.356
9.03857     84.342   -14.259
9.17004     84.314   -14.161
9.30342     84.285   -14.060
9.43874     84.257   -13.957
9.57603     84.229   -13.852
9.71532     84.200   -13.745
9.85663     84.172   -13.636
10.0000     84.143   -13.524
10.1455     84.115   -13.411
10.2930     84.087   -13.294
10.4427     84.058   -13.176
10.5946     84.030   -13.054
10.7487     84.002   -12.930
10.9051     83.973   -12.804
11.0637     83.945   -12.674
11.2246     83.916   -12.542
11.3879     83.888   -12.406
11.5535     83.860   -12.268
11.7216     83.831   -12.128
11.8921     83.804   -11.985
12.0650     83.774   -11.838
12.2405     83.742   -11.679
12.4186     83.716   -11.520
12.5992     83.689   -11.365
12.7825     83.661   -11.205
12.9684     83.634   -11.045
13.1570     83.598   -10.877
13.3484     83.562   -10.685
13.5426     83.530   -10.473
13.7395     83.497   -10.238
13.9394     83.468    -9.986
14.1421     83.445    -9.737
14.3478     83.427    -9.501
14.5565     83.410    -9.278
14.7683     83.388    -9.061
14.9831     83.365    -8.848
15.2010     83.333    -8.625
15.4221     83.301    -8.370
15.6464     83.277    -8.100
15.8740     83.250    -7.822
16.1049     83.224    -7.524
16.3392     83.201    -7.215
16.5768     83.178    -6.901
16.8179     83.152    -6.567
17.0626     83.125    -6.200
17.3107     83.103    -5.811
17.5625     83.082    -5.403
17.8180     83.069    -4.973
18.0771     83.059    -4.526
18.3401     83.043    -4.050
18.6068     83.035    -3.548
18.8775     83.035    -3.031
19.1521     83.044    -2.494
19.4306     83.061    -1.949
19.7133     83.080    -1.407
20.0000     83.104    -0.864
20.2909     83.135    -0.313
20.5860     83.182     0.229
20.8855     83.234     0.745
21.1893     83.292     1.240
21.4975     83.356     1.715
21.8102     83.422     2.168
22.1274     83.497     2.596
22.4492     83.586     2.980
22.7758     83.683     3.313
23.1071     83.780     3.596
23.4432     83.878     3.826
23.7841     83.978     4.007
24.1301     84.085     4.144
24.4811     84.196     4.229
24.8372     84.310     4.252
25.1984     84.429     4.199
25.5649     84.549     4.066
25.9368     84.665     3.864
26.3141     84.775     3.598
26.6968     84.883     3.262
27.0851     84.982     2.873
27.4791     85.085     2.429
27.8788     85.181     1.919
28.2843     85.271     1.346
28.6957     85.354     0.710
29.1131     85.425     0.020
29.5365     85.485    -0.709
29.9661     85.534    -1.476
30.4020     85.572    -2.271
30.8442     85.599    -3.086
31.2929     85.616    -3.917
31.7480     85.621    -4.767
32.2098     85.609    -5.620
32.6783     85.587    -6.465
33.1536     85.551    -7.300
33.6359     85.495    -8.105
34.1251     85.431    -8.869
34.6215     85.350    -9.587
35.1250     85.254   -10.233
35.6359     85.146   -10.789
36.1543     85.020   -11.227
36.6802     84.880   -11.506
37.2137     84.739   -11.614
37.7550     84.605   -11.548
38.3041     84.493   -11.328
38.8613     84.407   -11.000
39.4265     84.352   -10.620
40.0000     84.320   -10.234
40.5818     84.313    -9.878
41.1721     84.328    -9.594
41.7710     84.360    -9.416
42.3785     84.409    -9.372
42.9949     84.462    -9.482
43.6203     84.511    -9.740
44.2548     84.541   -10.126
44.8985     84.547   -10.589
45.5515     84.526   -11.073
46.2141     84.483   -11.530
46.8863     84.421   -11.917
47.5683     84.355   -12.217
48.2602     84.285   -12.427
48.9621     84.222   -12.554
49.6743     84.168   -12.628
50.3968     84.121   -12.665
51.1299     84.086   -12.685
51.8736     84.062   -12.723
52.6281     84.046   -12.796
53.3936     84.038   -12.916
54.1702     84.029   -13.086
54.9581     84.010   -13.284
55.7575     83.989   -13.499
56.5685     83.968   -13.730
57.3914     83.957   -13.985
58.2261     83.958   -14.303
59.0730     83.970   -14.728
59.9323     83.983   -15.295
60.8040     83.988   -16.021
61.6884     83.980   -16.916
62.5857     83.948   -17.978
63.4960     83.876   -19.174
64.4196     83.759   -20.453
65.3566     83.585   -21.758
66.3073     83.341   -22.997
67.2717     83.025   -24.047
68.2502     82.642   -24.796
69.2429     82.195   -25.108
70.2501     81.693   -24.816
71.2719     81.160   -23.753
72.3086     80.633   -21.787
73.3603     80.185   -18.912
74.4274     79.892   -15.312
75.5099     79.837   -11.436
76.6083     80.009    -7.891
77.7226     80.345    -5.140
78.8531     80.773    -3.438
80.0000     81.201    -2.801
81.1636     81.562    -3.062
82.3442     81.808    -3.962
83.5419     81.908    -5.212
84.7570     81.863    -6.521
85.9899     81.678    -7.604
87.2406     81.387    -8.206
88.5096     81.025    -8.134
89.7970     80.642    -7.279
91.1031     80.289    -5.612
92.4282     80.009    -3.193
93.7726     79.840    -0.179
95.1366     79.801     3.197
96.5204     79.909     6.682
97.9243     80.168     9.992
99.3486     80.558    12.866
100.794     81.055    15.097
102.260     81.625    16.545
103.747     82.230    17.155
105.256     82.832    16.949
106.787     83.386    16.010
108.340     83.862    14.485
109.916     84.256    12.515
111.515     84.562    10.230
113.137     84.779     7.765
114.783     84.929     5.200
116.452     85.005     2.596
118.146     85.011     0.026
119.865     84.952    -2.445
121.608     84.817    -4.740
123.377     84.612    -6.750
125.171     84.346    -8.373
126.992     84.049    -9.533
128.839     83.760   -10.225
130.713     83.522   -10.547
132.615     83.374   -10.707
134.543     83.318   -10.981
136.500     83.321   -11.598
138.486     83.322   -12.655
140.500     83.258   -14.102
142.544     83.079   -15.774
144.617     82.762   -17.424
146.721     82.313   -18.776
148.855     81.743   -19.548
151.020     81.086   -19.462
153.217     80.381   -18.270
155.445     79.684   -15.747
157.706     79.097   -11.817
160.000     78.738    -6.749
162.327     78.737    -1.244
164.688     79.108     3.625
167.084     79.739     7.008
169.514     80.526     8.495
171.980     81.277     8.117
174.481     81.837     6.369
177.019     82.158     3.770
179.594     82.174     0.838
182.206     81.874    -1.798
184.856     81.352    -3.563
187.545     80.666    -3.976
190.273     79.948    -2.612
193.041     79.399     0.536
195.849     79.196     4.740
198.697     79.446     8.738
201.587     80.049    11.308
204.520     80.683    12.106
207.494     81.149    11.546
210.512     81.333    10.235
213.574     81.247     8.833
216.681     81.002     7.890
219.833     80.701     7.719
223.030     80.417     8.472
226.274     80.201    10.097
229.565     80.109    12.322
232.905     80.221    14.619
236.292     80.667    16.111
239.729     81.363    15.886
243.216     82.073    13.719
246.754     82.586     9.939
250.343     82.618     5.362
253.984     82.062     1.055
257.678     80.882    -1.815
261.426     79.070    -1.439
265.229     77.042     4.882
269.087     75.956    17.881
273.001     76.582    31.558
276.972     78.013    39.727
281.000     79.423    42.671
285.088     80.488    42.505
289.234     81.079    41.097
293.441     81.197    39.898
297.709     80.964    39.989
302.040     80.632    42.059
306.433     80.744    45.721
310.890     81.583    49.089
315.412     82.769    50.483
320.000     83.829    49.699
324.655     84.550    47.414
329.377     84.919    44.448
334.168     85.012    41.542
339.028     84.954    39.215
343.959     84.841    37.749
348.962     84.753    37.156
354.038     84.759    37.192
359.188     84.909    37.450
364.412     85.215    37.511
369.713     85.578    37.144
375.090     85.880    36.415
380.546     86.072    35.524
386.081     86.220    34.586
391.697     86.414    33.580
397.394     86.717    32.345
403.175     87.084    30.639
409.039     87.378    28.405
414.989     87.534    25.808
421.025     87.516    23.153
427.149     87.312    20.870
433.362     86.993    19.322
439.665     86.660    18.597
446.060     86.467    18.479
452.548     86.534    18.422
459.131     86.747    17.921
465.809     86.900    16.922
472.584     86.887    15.651
479.458     86.681    14.484
486.432     86.396    13.805
493.507     86.209    13.629
500.686     86.184    13.600
507.968     86.302    13.303
515.357     86.431    12.529
522.853     86.399    11.526
530.458     86.186    10.687
538.174     85.874    10.243
546.002     85.596    10.276
553.943     85.489    10.613
562.001     85.501    10.904
570.175     85.458    11.069
578.469     85.262    11.400
586.883     84.992    12.232
595.419     84.768    13.638
604.080     84.774    15.338
612.866     85.031    16.705
621.780     85.298    17.500
630.824     85.478    17.867
640.000     85.545    17.955
649.309     85.608    17.902
658.753     85.810    17.610
668.335     86.082    16.865
678.056     86.254    15.731
687.919     86.216    14.481
697.925     85.963    13.516
708.077     85.619    13.206
718.376     85.348    13.664
728.825     85.193    14.777
739.426     85.120    16.364
750.181     85.109    18.173
761.093     85.221    19.895
772.163     85.570    21.104
783.394     86.069    21.383
794.789     86.484    20.765
806.349     86.729    19.520
818.078     86.766    17.975
829.977     86.656    16.580
842.050     86.507    15.677
854.298     86.318    15.413
866.724     86.131    15.794
879.330     86.043    16.564
892.120     86.111    17.392
905.097     86.312    17.987
918.262     86.505    18.212
931.618     86.614    18.154
945.169     86.671    17.965
958.917     86.728    17.794
972.864     86.805    17.722
987.015     86.920    17.634
1001.37     87.063    17.334
1015.94     87.245    16.714
1030.71     87.439    15.746
1045.71     87.551    14.522
1060.92     87.542    13.219
1076.35     87.420    12.041
1092.00     87.226    11.243
1107.89     87.031    10.971
1124.00     86.870    11.167
1140.35     86.785    11.648
1156.94     86.810    12.147
1173.77     86.904    12.464
1190.84     87.018    12.512
1208.16     87.093    12.299
1225.73     87.104    11.978
1243.56     87.077    11.716
1261.65     87.049    11.559
1280.00     87.051    11.456
1298.62     87.082    11.337
1317.51     87.108    11.199
1336.67     87.107    11.077
1356.11     87.063    11.045
1375.84     87.009    11.199
1395.85     87.001    11.520
1416.15     87.069    11.850
1436.75     87.211    11.982
1457.65     87.392    11.763
1478.85     87.552    11.182
1500.36     87.650    10.337
1522.19     87.659     9.398
1544.33     87.600     8.556
1566.79     87.508     7.937
1589.58     87.419     7.567
1612.70     87.369     7.362
1636.16     87.369     7.174
1659.95     87.407     6.868
1684.10     87.451     6.364
1708.60     87.454     5.693
1733.45     87.407     4.945
1758.66     87.292     4.262
1784.24     87.121     3.815
1810.19     86.929     3.704
1836.52     86.728     3.981
1863.24     86.572     4.627
1890.34     86.492     5.480
1917.83     86.498     6.335
1945.73     86.589     6.979
1974.03     86.714     7.275
2002.74     86.811     7.260
2031.87     86.862     7.041
2061.43     86.846     6.769
2091.41     86.787     6.608
2121.83     86.745     6.581
2152.69     86.721     6.634
2184.01     86.733     6.694
2215.77     86.772     6.648
2248.00     86.789     6.488
2280.70     86.774     6.292
2313.87     86.714     6.148
2347.53     86.638     6.122
2381.68     86.580     6.207
2416.32     86.544     6.383
2451.46     86.523     6.629
2487.12     86.491     6.926
2523.30     86.455     7.283
2560.00     86.463     7.636
2597.24     86.528     7.873
2635.01     86.621     7.924
2673.34     86.680     7.815
2712.23     86.669     7.664
2751.68     86.620     7.588
2791.70     86.567     7.667
2832.31     86.569     7.868
2873.50     86.619     8.052
2915.30     86.702     8.088
2957.70     86.794     7.911
3000.72     86.865     7.548
3044.37     86.911     7.060
3088.65     86.932     6.462
3133.58     86.955     5.737
3179.16     86.991     4.826
3225.40     87.025     3.678
3272.31     86.995     2.329
3319.91     86.866     0.911
3368.20     86.608    -0.356
3417.19     86.239    -1.215
3466.89     85.822    -1.495
3517.32     85.411    -1.156
3568.48     85.062    -0.269
3620.39     84.790     0.994
3673.05     84.561     2.504
3726.47     84.361     4.197
3780.67     84.202     6.022
3835.67     84.110     7.897
3891.46     84.095     9.696
3948.06     84.126    11.321
4005.49     84.157    12.769
4063.75     84.161    14.120
4122.86     84.162    15.446
4182.82     84.183    16.774
4243.66     84.236    18.090
4305.39     84.305    19.365
4368.01     84.370    20.597
4431.55     84.435    21.807
4496.01     84.518    23.000
4561.40     84.630    24.154
4627.75     84.768    25.220
4695.06     84.917    26.159
4763.35     85.068    26.968
4832.64     85.219    27.663
4902.93     85.369    28.257
4974.24     85.520    28.756
5046.60     85.671    29.159
5120.00     85.821    29.463
5194.47     85.965    29.666
5270.03     86.094    29.791
5346.68     86.204    29.880
5424.45     86.294    29.976
5503.35     86.357    30.149
5583.40     86.416    30.443
5664.61     86.490    30.836
5747.01     86.594    31.278
5830.60     86.736    31.698
5915.41     86.906    32.017
6001.45     87.085    32.192
6088.74     87.266    32.220
6177.30     87.447    32.113
6267.15     87.628    31.888
6358.31     87.809    31.568
6450.80     87.991    31.161
6544.62     88.181    30.647
6639.82     88.412    29.920
6736.40     88.725    28.728
6834.38     89.106    26.771
6933.79     89.530    23.755
7034.64     89.917    19.589
7136.96     90.131    14.480
7240.77     89.998     8.995
7346.09     89.362     3.976
7452.94     88.215     0.093
7561.35     86.598    -1.790
7671.33     84.766    -0.410
7782.91     83.373     4.573
7896.12     82.660    11.713
8010.97     82.461    18.937
8127.49     82.543    24.896
8245.71     82.640    29.916
8365.65     82.570    34.933
8487.33     82.383    40.956
8610.78     82.516    48.149
8736.03     83.376    54.873
8863.09     84.663    59.174
8992.01     85.931    60.695
9122.80     86.976    60.039
9255.50     87.738    58.011
9390.12     88.257    55.329
9526.70     88.591    52.460
9665.27     88.777    49.642
9805.86     88.850    47.008
9948.49     88.836    44.626
10093.2     88.745    42.563
10240.0     88.571    40.915
10388.9     88.295    39.848
10540.1     87.919    39.624
10693.4     87.524    40.421
10848.9     87.261    42.065
11006.7     87.254    43.989
11166.8     87.545    45.394
11329.2     87.944    45.718
11494.0     88.222    45.031
11661.2     88.276    43.742
11830.8     88.080    42.348
12002.9     87.662    41.406
12177.5     87.108    41.412
12354.6     86.486    42.709
12534.3     85.836    45.606
12716.6     85.241    50.384
12901.6     84.858    57.045
13089.2     84.868    65.057
13279.6     85.369    73.108
13472.8     86.327    79.849
13668.8     87.563    84.441
13867.6     88.830    86.834
14069.3     90.110    87.322
14273.9     91.370    86.058
14481.5     92.504    83.322
14692.2     93.490    79.437
14905.9     94.290    74.613
15122.7     94.844    69.151
15342.7     95.138    63.442
15565.8     95.179    57.791
15792.2     94.987    52.448
16021.9     94.615    47.615
16255.0     94.137    43.456
16491.4     93.601    40.041
16731.3     92.958    37.577
16974.7     92.118    36.525
17221.6     91.151    37.305
17472.1     90.261    40.082
17726.2     89.789    44.262
17984.0     89.821    48.551
18245.6     90.120    51.853
18511.0     90.355    53.939
18780.2     90.496    55.317
19053.4     90.623    56.423
19330.5     90.747    57.419
19611.7     90.870    58.355
19897.0     90.993    59.217
20186.4     91.117    60.015
20480.0     91.240    60.756
20777.9     91.363    61.448
21080.1     91.487    62.098
21386.7     91.610    62.710
21697.8     91.734    63.290
22013.4     91.857    63.842
22333.6     91.980    64.367
22658.4     92.104    64.869
22988.0     92.227    65.351
23322.4     92.350    65.813
23661.6     92.474    66.258
24005.8     92.597    66.687
24355.0     92.720    67.101
24709.2     92.844    67.502
25068.6     92.967    67.890
25433.2     93.091    68.266
25803.2     93.214    68.630
26178.5     93.337    68.985
26559.3     93.461    69.329
26945.6     93.584    69.665
27337.5     93.707    69.991
27735.2     93.831    70.310
28138.6     93.954    70.620
28547.9     94.078    70.924
28963.1     94.201    71.219
29384.4     94.324    71.508
29811.8     94.448    71.791
30245.4     94.571    72.067
30685.3     94.694    72.337
31131.7     94.818    72.602
31584.5     94.941    72.861
32043.9     95.064    73.115
32510.0     95.188    73.363
32982.8     95.311    73.607
33462.6     95.435    73.846
33949.3     95.558    74.080
34443.1     95.681    74.309
34944.1     95.805    74.535
35452.4     95.928    74.756
35968.0     96.051    74.974
36491.2     96.175    75.187
37022.0     96.298    75.397
37560.5     96.422    75.606
38106.8     96.543    75.793
38661.1     96.659    75.965
39223.4     96.745    76.094
39793.9     96.804    76.192
